4.056695992179862875e-01
1.422287390029325582e+00
1.412512218963831945e+00
1.461388074291300132e+00
1.407624633431085126e+00
1.383186705767350810e+00
1.617790811339198331e+00
1.568914956011730144e+00
1.520039100684261957e+00
1.529814271749755594e+00
1.554252199413489688e+00
1.564027370478983325e+00
1.564027370478983325e+00
1.510263929618768319e+00
1.529814271749755594e+00
1.506876832844574892e+03
1.510263929618768319e+00
1.495601173020527863e+00
1.500488758553274682e+00
1.529814271749755594e+00
1.500488758553274682e+00
1.529814271749755594e+00
1.524926686217008776e+00
1.329423264907135804e+00
1.358748778103616717e+00
1.383186705767350810e+00
1.422287390029325582e+00
1.412512218963831945e+00
1.461388074291300132e+00
1.407624633431085126e+00
1.383186705767350810e+00
1.617790811339198331e+00
1.568914956011730144e+00
1.520039100684261957e+00
1.529814271749755594e+00
1.554252199413489688e+00
1.564027370478983325e+00
1.564027370478983325e+00
1.510263929618768319e+00
1.529814271749755594e+00
1.506827956989247468e+03
1.480938416422287407e+00
1.480938416422287407e+00
1.510263929618768319e+00
1.515151515151515138e+00
1.505376344086021501e+00
1.539589442815249232e+00
1.476050830889540588e+00
1.495601173020527863e+00
1.480938416422287407e+00
1.500488758553274682e+00
1.515151515151515138e+00
1.534701857282502413e+00
1.471163245356793770e+00
1.500488758553274682e+00
1.466275659824046951e+00
1.480938416422287407e+00
1.456500488758553313e+00
1.461388074291300132e+00
1.490713587487781044e+00
1.480938416422287407e+00
1.466275659824046951e+00
1.505376344086021501e+00
1.510263929618768319e+00
1.456500488758553313e+00
1.476050830889540588e+00
1.510263929618768319e+00
1.466275659824046951e+00
1.456500488758553313e+00
1.480938416422287407e+00
1.485826001955034226e+00
1.505376344086021501e+00
1.490713587487781044e+00
1.485826001955034226e+00
1.456500488758553313e+00
1.500488758553274682e+00
1.480938416422287407e+00
1.471163245356793770e+00
1.544477028347996050e+00
1.490713587487781044e+00
1.500488758553274682e+00
1.480938416422287407e+00
1.471163245356793770e+00
1.510263929618768319e+00
1.476050830889540588e+00
1.505376344086021501e+00
1.456500488758553313e+00
1.476050830889540588e+00
1.500488758553274682e+00
1.485826001955034226e+00
1.510263929618768319e+00
1.495601173020527863e+00
1.520039100684261957e+00
1.476050830889540588e+00
1.480938416422287407e+00
1.476050830889540588e+00
1.500488758553274682e+00
1.505376344086021501e+00
1.476050830889540588e+00
1.456500488758553313e+00
1.456500488758553313e+00
1.466275659824046951e+00
1.456500488758553313e+00
1.436950146627566038e+00
1.397849462365591267e+00
1.378299120234603992e+00
1.402737047898338085e+00
1.402737047898338085e+00
1.417399804496578763e+00
1.451612903225806495e+00
1.373411534701857173e+00
1.534701857282502413e+00
1.510263929618768319e+00
1.515151515151515138e+00
1.549364613880742869e+00
1.549364613880742869e+00
1.529814271749755594e+00
1.529814271749755594e+00
1.554252199413489688e+00
1.549364613880742869e+00
1.515151515151515138e+00
1.480938416422287407e+00
1.524926686217008776e+00
1.520039100684261957e+00
1.505376344086021501e+00
1.500488758553274682e+00
1.476050830889540588e+00
1.524926686217008776e+00
1.500488758553274682e+00
1.495601173020527863e+00
1.505376344086021501e+00
1.500488758553274682e+00
1.505376344086021501e+00
1.485826001955034226e+00
1.500488758553274682e+00
1.539589442815249232e+00
1.495601173020527863e+00
1.534701857282502413e+00
1.515151515151515138e+00
1.515151515151515138e+00
1.515151515151515138e+00
1.490713587487781044e+00
1.534701857282502413e+00
1.485826001955034226e+00
1.500488758553274682e+00
1.520039100684261957e+00
1.505376344086021501e+00
1.515151515151515138e+00
1.490713587487781044e+00
1.534701857282502413e+00
1.432062561094819220e+00
1.451612903225806495e+00
1.480938416422287407e+00
1.490713587487781044e+00
1.446725317693059676e+00
1.515151515151515138e+00
1.476050830889540588e+00
1.515151515151515138e+00
1.515151515151515138e+00
1.485826001955034226e+00
1.510263929618768319e+00
1.466275659824046951e+00
1.476050830889540588e+00
1.505376344086021501e+00
1.461388074291300132e+00
1.480938416422287407e+00
1.461388074291300132e+00
1.480938416422287407e+00
1.529814271749755594e+00
1.495601173020527863e+00
1.490713587487781044e+00
1.520039100684261957e+00
1.490713587487781044e+00
1.480938416422287407e+00
1.436950146627566038e+00
1.466275659824046951e+00
1.461388074291300132e+00
1.436950146627566038e+00
1.456500488758553313e+00
1.476050830889540588e+00
1.456500488758553313e+00
1.476050830889540588e+00
1.495601173020527863e+00
1.534701857282502413e+00
1.505376344086021501e+00
1.436950146627566038e+00
1.495601173020527863e+00
1.500488758553274682e+00
1.490713587487781044e+00
1.510263929618768319e+00
1.520039100684261957e+00
1.515151515151515138e+00
1.534701857282502413e+00
1.471163245356793770e+00
1.461388074291300132e+00
1.471163245356793770e+00
1.476050830889540588e+00
1.505376344086021501e+00
1.520039100684261957e+00
1.515151515151515138e+00
1.524926686217008776e+00
1.500488758553274682e+00
1.544477028347996050e+00
1.466275659824046951e+00
1.500488758553274682e+00
1.539589442815249232e+00
1.485826001955034226e+00
1.500488758553274682e+00
1.515151515151515138e+00
1.500488758553274682e+00
1.510263929618768319e+00
1.446725317693059676e+00
1.495601173020527863e+00
1.471163245356793770e+00
1.490713587487781044e+00
1.515151515151515138e+00
1.485826001955034226e+00
1.495601173020527863e+00
1.529814271749755594e+00
1.500488758553274682e+00
1.480938416422287407e+00
1.392961876832844448e+00
1.348973607038123079e+00
1.412512218963831945e+00
1.412512218963831945e+00
1.392961876832844448e+00
1.534701857282502413e+00
1.432062561094819220e+00
1.471163245356793770e+00
1.568914956011730144e+00
1.505376344086021501e+00
1.505376344086021501e+00
1.505376344086021501e+00
1.505376344086021501e+00
1.456500488758553313e+00
1.495601173020527863e+00
1.461388074291300132e+00
1.554252199413489688e+00
1.593352883675464238e+00
1.725317693059628787e+00
1.842619745845552437e+00
1.500488758553274682e+00
1.285434995112414436e+00
1.788856304985337431e+00
1.544477028347996050e+00
1.446725317693059676e+00
1.617790811339198331e+00
1.520039100684261957e+00
1.813294232649071525e+00
1.510263929618768319e+00
1.925708699902248355e+00
1.324535679374388986e+00
1.290322580645161255e+00
1.515151515151515138e+00
1.241446725317693067e+00
1.612903225806451513e+00
1.500488758553274682e+00
1.466275659824046951e+00
1.950146627565982449e+00
1.476050830889540588e+00
1.422287390029325582e+00
1.275659824046920798e+00
1.476050830889540588e+00
1.656891495601172881e+00
1.588465298142717419e+00
1.505376344086021501e+00
1.358748778103616717e+00
2.111436950146627467e+00
1.251221896383186705e+00
1.524926686217008776e+00
1.832844574780058799e+00
1.275659824046920798e+00
1.309872922776148529e+00
1.544477028347996050e+00
1.720430107526881969e+00
1.339198435972629442e+00
1.441837732160312857e+00
1.334310850439882623e+00
1.348973607038123079e+00
1.764418377321603337e+00
2.526881720430107503e+00
9.824046920821114526e-01
1.300097751710654892e+00
1.554252199413489688e+00
1.568914956011730144e+00
1.906158357771261080e+00
1.871945259042033349e+00
1.759530791788856519e+00
1.348973607038123079e+00
1.378299120234603992e+00
1.529814271749755594e+00
2.473118279569892497e+00
1.045943304007820096e+00
1.808406647116324706e+00
9.481915933528837215e-01
1.446725317693059676e+00
1.994134897360703818e+00
1.490713587487781044e+00
1.608015640273704694e+00
2.277614858260019304e+00
9.921798631476050900e-01
2.003910068426197455e+00
1.378299120234603992e+00
1.642228739002932425e+00
1.348973607038123079e+00
1.114369501466275558e+00
1.896383186705767443e+00
1.471163245356793770e+00
1.138807429130009652e+00
2.145650048875855198e+00
1.739980449657869244e+00
1.368523949169110354e+00
2.194525904203323385e+00
6.011730205278592587e-01
1.876832844574780168e+00
1.783968719452590612e+00
8.944281524926687155e-01
1.500488758553274682e+00
1.412512218963831945e+00
1.959921798631476086e+00
1.461388074291300132e+00
1.280547409579667617e+00
1.260997067448680342e+00
1.378299120234603992e+00
1.348973607038123079e+00
1.739980449657869244e+00
1.436950146627566038e+00
1.583577712609970600e+00
1.094819159335288283e+00
1.510263929618768319e+00
1.270772238514173980e+00
1.217008797653958974e+00
1.710654936461387887e+00
1.001955034213098727e+00
1.510263929618768319e+00
1.378299120234603992e+00
1.989247311827956999e+00
7.086999022482893817e-01
1.109481915933528740e+00
1.388074291300097629e+00
1.461388074291300132e+00
1.319648093841642167e+00
1.412512218963831945e+00
9.970674486803519088e-01
1.505376344086021501e+00
1.383186705767350810e+00
1.070381231671554190e+00
1.334310850439882623e+00
1.432062561094819220e+00
1.304985337243401711e+00
1.456500488758553313e+00
1.432062561094819220e+00
1.520039100684261957e+00
1.495601173020527863e+00
1.231671554252199430e+00
1.466275659824046951e+00
1.422287390029325582e+00
1.339198435972629442e+00
1.529814271749755594e+00
1.554252199413489688e+00
1.329423264907135804e+00
1.236559139784946248e+00
1.241446725317693067e+00
1.280547409579667617e+00
1.392961876832844448e+00
1.309872922776148529e+00
1.446725317693059676e+00
1.363636363636363535e+00
1.329423264907135804e+00
1.388074291300097629e+00
1.324535679374388986e+00
1.373411534701857173e+00
1.436950146627566038e+00
1.378299120234603992e+00
1.422287390029325582e+00
1.436950146627566038e+00
1.436950146627566038e+00
1.402737047898338085e+00
1.388074291300097629e+00
1.378299120234603992e+00
1.432062561094819220e+00
1.456500488758553313e+00
1.427174975562072401e+00
1.451612903225806495e+00
1.432062561094819220e+00
1.432062561094819220e+00
1.432062561094819220e+00
1.436950146627566038e+00
1.436950146627566038e+00
1.500488758553274682e+00
1.500488758553274682e+00
1.427174975562072401e+00
1.559139784946236507e+00
1.451612903225806495e+00
1.476050830889540588e+00
1.446725317693059676e+00
1.412512218963831945e+00
1.476050830889540588e+00
1.520039100684261957e+00
1.461388074291300132e+00
1.515151515151515138e+00
1.480938416422287407e+00
1.480938416422287407e+00
1.505376344086021501e+00
1.490713587487781044e+00
1.476050830889540588e+00
1.515151515151515138e+00
1.505376344086021501e+00
1.524926686217008776e+00
1.485826001955034226e+00
1.515151515151515138e+00
1.490713587487781044e+00
1.500488758553274682e+00
1.583577712609970600e+00
1.451612903225806495e+00
1.490713587487781044e+00
1.539589442815249232e+00
1.520039100684261957e+00
1.534701857282502413e+00
1.510263929618768319e+00
1.559139784946236507e+00
1.534701857282502413e+00
1.495601173020527863e+00
1.539589442815249232e+00
1.529814271749755594e+00
1.461388074291300132e+00
1.583577712609970600e+00
1.524926686217008776e+00
1.515151515151515138e+00
1.524926686217008776e+00
1.568914956011730144e+00
1.480938416422287407e+00
1.495601173020527863e+00
1.534701857282502413e+00
1.544477028347996050e+00
1.490713587487781044e+00
1.515151515151515138e+00
1.637341153470185606e+00
1.471163245356793770e+00
1.500488758553274682e+00
1.515151515151515138e+00
1.539589442815249232e+00
1.544477028347996050e+00
1.524926686217008776e+00
1.612903225806451513e+00
1.539589442815249232e+00
1.573802541544476963e+00
1.564027370478983325e+00
1.515151515151515138e+00
1.603128054740957875e+00
1.392961876832844448e+00
1.407624633431085126e+00
1.632453567937438788e+00
1.500488758553274682e+00
1.476050830889540588e+00
1.500488758553274682e+00
1.480938416422287407e+00
1.490713587487781044e+00
1.412512218963831945e+00
1.412512218963831945e+00
1.480938416422287407e+00
1.407624633431085126e+00
1.441837732160312857e+00
1.480938416422287407e+00
1.358748778103616717e+00
1.456500488758553313e+00
1.568914956011730144e+00
1.544477028347996050e+00
1.529814271749755594e+00
1.559139784946236507e+00
1.608015640273704694e+00
1.520039100684261957e+00
1.539589442815249232e+00
1.495601173020527863e+00
1.461388074291300132e+00
1.476050830889540588e+00
1.549364613880742869e+00
1.471163245356793770e+00
1.549364613880742869e+00
1.534701857282502413e+00
1.505376344086021501e+00
1.549364613880742869e+00
1.573802541544476963e+00
1.534701857282502413e+00
1.485826001955034226e+00
1.505376344086021501e+00
1.534701857282502413e+00
1.520039100684261957e+00
1.559139784946236507e+00
1.564027370478983325e+00
1.500488758553274682e+00
1.559139784946236507e+00
1.515151515151515138e+00
1.441837732160312857e+00
1.529814271749755594e+00
1.407624633431085126e+00
1.480938416422287407e+00
1.490713587487781044e+00
1.510263929618768319e+00
1.515151515151515138e+00
1.471163245356793770e+00
1.529814271749755594e+00
1.524926686217008776e+00
1.520039100684261957e+00
1.451612903225806495e+00
1.500488758553274682e+00
1.485826001955034226e+00
1.397849462365591267e+00
1.436950146627566038e+00
1.520039100684261957e+00
1.539589442815249232e+00
1.466275659824046951e+00
1.534701857282502413e+00
1.510263929618768319e+00
1.402737047898338085e+00
1.456500488758553313e+00
1.476050830889540588e+00
1.461388074291300132e+00
1.476050830889540588e+00
1.495601173020527863e+00
1.627565982404691969e+00
1.495601173020527863e+00
1.476050830889540588e+00
1.529814271749755594e+00
1.500488758553274682e+00
1.515151515151515138e+00
1.588465298142717419e+00
1.515151515151515138e+00
1.451612903225806495e+00
1.485826001955034226e+00
1.529814271749755594e+00
1.529814271749755594e+00
1.495601173020527863e+00
1.549364613880742869e+00
1.495601173020527863e+00
1.476050830889540588e+00
1.524926686217008776e+00
1.432062561094819220e+00
1.485826001955034226e+00
1.480938416422287407e+00
1.554252199413489688e+00
1.544477028347996050e+00
1.490713587487781044e+00
1.598240469208211056e+00
1.608015640273704694e+00
1.676441837732160156e+00
1.686217008797653794e+00
1.432062561094819220e+00
1.388074291300097629e+00
1.383186705767350810e+00
1.485826001955034226e+00
1.461388074291300132e+00
1.436950146627566038e+00
1.544477028347996050e+00
1.539589442815249232e+00
1.559139784946236507e+00
1.686217008797653794e+00
1.593352883675464238e+00
1.397849462365591267e+00
1.676441837732160156e+00
1.339198435972629442e+00
1.373411534701857173e+00
1.368523949169110354e+00
1.476050830889540588e+00
1.622678396871945150e+00
1.559139784946236507e+00
1.642228739002932425e+00
1.622678396871945150e+00
1.334310850439882623e+00
1.407624633431085126e+00
1.500488758553274682e+00
1.598240469208211056e+00
1.422287390029325582e+00
1.529814271749755594e+00
1.392961876832844448e+00
1.456500488758553313e+00
1.285434995112414436e+00
1.402737047898338085e+00
1.476050830889540588e+00
1.363636363636363535e+00
1.495601173020527863e+00
1.388074291300097629e+00
1.476050830889540588e+00
1.490713587487781044e+00
1.485826001955034226e+00
1.534701857282502413e+00
1.495601173020527863e+00
1.534701857282502413e+00
1.608015640273704694e+00
1.564027370478983325e+00
1.407624633431085126e+00
1.520039100684261957e+00
1.568914956011730144e+00
1.749755620723362881e+00
1.339198435972629442e+00
1.544477028347996050e+00
1.529814271749755594e+00
1.676441837732160156e+00
1.544477028347996050e+00
1.510263929618768319e+00
1.661779081133919700e+00
1.466275659824046951e+00
1.422287390029325582e+00
1.710654936461387887e+00
1.534701857282502413e+00
2.057673509286412461e+00
1.158357771260996927e+00
1.564027370478983325e+00
1.544477028347996050e+00
2.023460410557184730e+00
1.544477028347996050e+00
1.202346041055718517e+00
1.940371456500488812e+00
1.632453567937438788e+00
1.999022482893450636e+00
1.720430107526881969e+00
1.094819159335288283e+00
2.409579667644183854e+00
1.510263929618768319e+00
1.715542521994134706e+00
2.243401759530791573e+00
8.797653958944282593e-01
2.003910068426197455e+00
1.265884652981427161e+00
1.461388074291300132e+00
1.715542521994134706e+00
8.162267839687193938e-01
1.353861192570869898e+00
1.402737047898338085e+00
2.101661779081133830e+00
7.820136852394916627e-01
1.441837732160312857e+00
8.064516129032257563e-01
1.099706744868035102e+00
1.358748778103616717e+00
1.652003910068426062e+00
1.901270772238514262e+00
8.553274682306939436e-01
1.304985337243401711e+00
1.544477028347996050e+00
1.402737047898338085e+00
1.984359726295210180e+00
1.187683284457478061e+00
2.321603128054740672e+00
8.553274682306939436e-01
1.358748778103616717e+00
2.165200391006842473e+00
1.935483870967741993e+00
9.677419354838709964e-01
1.779081133919843793e+00
9.775171065493646338e-01
1.339198435972629442e+00
1.490713587487781044e+00
1.974584555229716543e+00
1.119257086999022377e+00
1.265884652981427161e+00
2.311827956989247035e+00
9.970674486803519088e-01
1.871945259042033349e+00
2.101661779081133830e+00
4.301075268817204922e-01
9.237536656891496278e-01
1.231671554252199430e+00
1.275659824046920798e+00
1.471163245356793770e+00
2.174975562072336110e+00
1.676441837732160156e+00
1.363636363636363535e+00
1.329423264907135804e+00
1.251221896383186705e+00
1.304985337243401711e+00
1.485826001955034226e+00
1.295210166177908073e+00
1.436950146627566038e+00
1.334310850439882623e+00
1.177908113391984424e+00
1.735092864125122425e+00
1.104594330400781921e+00
1.285434995112414436e+00
1.378299120234603992e+00
1.407624633431085126e+00
1.378299120234603992e+00
1.270772238514173980e+00
1.251221896383186705e+00
1.339198435972629442e+00
1.309872922776148529e+00
1.632453567937438788e+00
1.260997067448680342e+00
1.256109481915933523e+00
1.466275659824046951e+00
1.446725317693059676e+00
1.388074291300097629e+00
1.270772238514173980e+00
1.182795698924731242e+00
1.124144672531769196e+00
1.109481915933528740e+00
1.143695014662756471e+00
1.226783968719452611e+00
1.319648093841642167e+00
1.319648093841642167e+00
1.353861192570869898e+00
1.319648093841642167e+00
1.363636363636363535e+00
1.368523949169110354e+00
1.402737047898338085e+00
1.446725317693059676e+00
1.476050830889540588e+00
1.500488758553274682e+00
1.466275659824046951e+00
1.485826001955034226e+00
1.432062561094819220e+00
1.446725317693059676e+00
1.461388074291300132e+00
1.373411534701857173e+00
1.446725317693059676e+00
1.515151515151515138e+00
1.490713587487781044e+00
1.583577712609970600e+00
1.485826001955034226e+00
1.461388074291300132e+00
1.573802541544476963e+00
1.485826001955034226e+00
1.490713587487781044e+00
1.598240469208211056e+00
1.549364613880742869e+00
1.632453567937438788e+00
1.461388074291300132e+00
1.471163245356793770e+00
1.510263929618768319e+00
1.485826001955034226e+00
1.549364613880742869e+00
1.612903225806451513e+00
1.544477028347996050e+00
1.461388074291300132e+00
1.520039100684261957e+00
1.520039100684261957e+00
1.485826001955034226e+00
1.539589442815249232e+00
1.476050830889540588e+00
1.544477028347996050e+00
1.529814271749755594e+00
1.573802541544476963e+00
1.593352883675464238e+00
1.500488758553274682e+00
1.500488758553274682e+00
1.510263929618768319e+00
1.554252199413489688e+00
1.529814271749755594e+00
1.471163245356793770e+00
1.466275659824046951e+00
1.456500488758553313e+00
1.510263929618768319e+00
1.495601173020527863e+00
1.485826001955034226e+00
1.539589442815249232e+00
1.524926686217008776e+00
1.520039100684261957e+00
1.510263929618768319e+00
1.451612903225806495e+00
1.559139784946236507e+00
1.510263929618768319e+00
1.524926686217008776e+00
1.436950146627566038e+00
1.456500488758553313e+00
1.490713587487781044e+00
1.490713587487781044e+00
1.436950146627566038e+00
1.510263929618768319e+00
1.564027370478983325e+00
1.549364613880742869e+00
1.554252199413489688e+00
1.422287390029325582e+00
1.480938416422287407e+00
1.500488758553274682e+00
1.520039100684261957e+00
1.554252199413489688e+00
1.461388074291300132e+00
1.471163245356793770e+00
1.466275659824046951e+00
1.515151515151515138e+00
1.476050830889540588e+00
1.456500488758553313e+00
1.505376344086021501e+00
1.520039100684261957e+00
1.461388074291300132e+00
1.524926686217008776e+00
1.534701857282502413e+00
1.559139784946236507e+00
1.544477028347996050e+00
1.573802541544476963e+00
1.490713587487781044e+00
1.466275659824046951e+00
1.554252199413489688e+00
1.588465298142717419e+00
1.534701857282502413e+00
1.520039100684261957e+00
1.520039100684261957e+00
1.515151515151515138e+00
1.544477028347996050e+00
1.520039100684261957e+00
1.573802541544476963e+00
1.500488758553274682e+00
1.510263929618768319e+00
1.632453567937438788e+00
1.510263929618768319e+00
1.524926686217008776e+00
1.495601173020527863e+00
1.471163245356793770e+00
1.446725317693059676e+00
1.520039100684261957e+00
1.471163245356793770e+00
1.559139784946236507e+00
1.397849462365591267e+00
1.417399804496578763e+00
1.432062561094819220e+00
1.427174975562072401e+00
1.412512218963831945e+00
1.461388074291300132e+00
1.388074291300097629e+00
1.427174975562072401e+00
1.564027370478983325e+00
1.588465298142717419e+00
1.529814271749755594e+00
1.559139784946236507e+00
1.480938416422287407e+00
1.524926686217008776e+00
1.524926686217008776e+00
1.515151515151515138e+00
1.612903225806451513e+00
1.451612903225806495e+00
1.490713587487781044e+00
1.495601173020527863e+00
1.520039100684261957e+00
1.505376344086021501e+00
1.500488758553274682e+00
1.583577712609970600e+00
1.480938416422287407e+00
1.500488758553274682e+00
1.534701857282502413e+00
1.593352883675464238e+00
1.461388074291300132e+00
1.407624633431085126e+00
1.578690127077223782e+00
1.490713587487781044e+00
1.495601173020527863e+00
1.505376344086021501e+00
1.485826001955034226e+00
1.480938416422287407e+00
1.583577712609970600e+00
1.676441837732160156e+00
1.676441837732160156e+00
1.466275659824046951e+00
1.358748778103616717e+00
1.471163245356793770e+00
1.495601173020527863e+00
1.461388074291300132e+00
1.568914956011730144e+00
1.490713587487781044e+00
1.647116324535679244e+00
1.480938416422287407e+00
1.564027370478983325e+00
1.432062561094819220e+00
1.647116324535679244e+00
1.417399804496578763e+00
1.466275659824046951e+00
1.480938416422287407e+00
1.480938416422287407e+00
1.480938416422287407e+00
1.573802541544476963e+00
1.495601173020527863e+00
1.402737047898338085e+00
1.681329423264906975e+00
1.515151515151515138e+00
1.417399804496578763e+00
1.422287390029325582e+00
1.461388074291300132e+00
1.510263929618768319e+00
1.593352883675464238e+00
1.407624633431085126e+00
1.583577712609970600e+00
1.432062561094819220e+00
1.554252199413489688e+00
1.485826001955034226e+00
1.515151515151515138e+00
1.730205278592375606e+00
1.158357771260996927e+00
1.417399804496578763e+00
1.578690127077223782e+00
1.397849462365591267e+00
1.725317693059628787e+00
1.632453567937438788e+00
1.524926686217008776e+00
1.510263929618768319e+00
1.549364613880742869e+00
1.495601173020527863e+00
1.290322580645161255e+00
1.495601173020527863e+00
1.456500488758553313e+00
1.529814271749755594e+00
1.608015640273704694e+00
1.422287390029325582e+00
1.471163245356793770e+00
1.637341153470185606e+00
1.642228739002932425e+00
1.427174975562072401e+00
1.300097751710654892e+00
1.739980449657869244e+00
1.476050830889540588e+00
1.554252199413489688e+00
1.515151515151515138e+00
1.681329423264906975e+00
1.544477028347996050e+00
1.627565982404691969e+00
1.480938416422287407e+00
1.739980449657869244e+00
1.627565982404691969e+00
1.006842619745845546e+00
1.793743890518084250e+00
1.881720430107526987e+00
1.290322580645161255e+00
1.334310850439882623e+00
1.476050830889540588e+00
1.329423264907135804e+00
1.862170087976539712e+00
1.231671554252199430e+00
1.363636363636363535e+00
1.642228739002932425e+00
1.070381231671554190e+00
1.358748778103616717e+00
1.984359726295210180e+00
1.930596285434995174e+00
1.485826001955034226e+00
1.549364613880742869e+00
1.564027370478983325e+00
1.515151515151515138e+00
2.531769305962854322e+00
9.872922776148582713e-01
1.412512218963831945e+00
1.109481915933528740e+00
1.955034213098729268e+00
1.754643206256109700e+00
2.214076246334310660e+00
1.280547409579667617e+00
1.564027370478983325e+00
1.314760508308895348e+00
9.726295210166178151e-01
1.378299120234603992e+00
1.568914956011730144e+00
1.598240469208211056e+00
8.846529814271750780e-01
1.661779081133919700e+00
2.101661779081133830e+00
1.016617790811339184e+00
1.783968719452590612e+00
1.358748778103616717e+00
1.124144672531769196e+00
1.129032258064516014e+00
1.373411534701857173e+00
1.691104594330400612e+00
1.554252199413489688e+00
2.013685239491691092e+00
1.950146627565982449e+00
1.055718475073313734e+00
1.309872922776148529e+00
1.270772238514173980e+00
1.280547409579667617e+00
1.402737047898338085e+00
1.485826001955034226e+00
9.481915933528837215e-01
1.573802541544476963e+00
1.290322580645161255e+00
1.422287390029325582e+00
9.090909090909091717e-01
1.652003910068426062e+00
1.466275659824046951e+00
1.300097751710654892e+00
1.647116324535679244e+00
1.270772238514173980e+00
1.246334310850439886e+00
1.544477028347996050e+00
1.148582600195503289e+00
1.226783968719452611e+00
1.793743890518084250e+00
1.241446725317693067e+00
1.295210166177908073e+00
1.407624633431085126e+00
1.485826001955034226e+00
1.295210166177908073e+00
1.412512218963831945e+00
1.334310850439882623e+00
1.231671554252199430e+00
1.383186705767350810e+00
1.427174975562072401e+00
1.451612903225806495e+00
1.554252199413489688e+00
1.241446725317693067e+00
1.422287390029325582e+00
1.324535679374388986e+00
1.353861192570869898e+00
1.358748778103616717e+00
