1.236559139784946248e+00
1.383186705767350810e+00
1.334310850439882623e+00
1.412512218963831945e+00
1.417399804496578763e+00
1.456500488758553313e+00
1.505376344086021501e+00
1.554252199413489688e+00
1.539589442815249232e+00
1.588465298142717419e+00
1.622678396871945150e+00
1.652003910068426062e+00
1.583577712609970600e+00
1.578690127077223782e+00
1.612903225806451513e+00
1.544477028347996050e+00
1.456500488758553313e+00
1.432062561094819220e+00
1.348973607038123079e+00
1.334310850439882623e+00
1.275659824046920798e+00
1.270772238514173980e+00
1.300097751710654892e+00
1.295210166177908073e+00
1.304985337243401711e+00
1.329423264907135804e+00
1.363636363636363535e+00
1.373411534701857173e+00
1.427174975562072401e+00
1.412512218963831945e+00
1.436950146627566038e+00
1.441837732160312857e+00
1.427174975562072401e+00
1.422287390029325582e+00
1.461388074291300132e+00
1.412512218963831945e+00
1.446725317693059676e+00
1.480938416422287407e+00
1.441837732160312857e+00
1.446725317693059676e+00
1.436950146627566038e+00
1.485826001955034226e+00
1.436950146627566038e+00
1.466275659824046951e+00
1.495601173020527863e+00
1.451612903225806495e+00
1.471163245356793770e+00
1.471163245356793770e+00
1.461388074291300132e+00
1.480938416422287407e+00
1.446725317693059676e+00
1.456500488758553313e+00
1.461388074291300132e+00
1.466275659824046951e+00
1.456500488758553313e+00
1.495601173020527863e+00
1.520039100684261957e+00
1.520039100684261957e+00
1.520039100684261957e+00
1.490713587487781044e+00
1.471163245356793770e+00
1.505376344086021501e+00
1.476050830889540588e+00
1.627565982404691969e+00
1.700879765395894250e+00
1.749755620723362881e+00
1.749755620723362881e+00
1.671554252199413337e+00
1.564027370478983325e+00
1.495601173020527863e+00
1.397849462365591267e+00
1.378299120234603992e+00
1.358748778103616717e+00
1.402737047898338085e+00
1.383186705767350810e+00
1.412512218963831945e+00
1.275659824046920798e+00
1.432062561094819220e+00
2.683284457478005702e+00
3.220918866080156207e+00
2.859237536656891621e+00
9.237536656891496278e-01
1.119257086999022377e+00
1.207233626588465336e+00
1.104594330400781921e+00
8.895405669599218967e-01
1.016617790811339184e+00
1.011730205278592365e+00
1.075268817204301008e+00
1.138807429130009652e+00
1.119257086999022377e+00
1.207233626588465336e+00
1.168132942326490564e+00
1.456500488758553313e+00
1.500488758553274682e+00
1.539589442815249232e+00
1.524926686217008776e+00
1.583577712609970600e+00
1.603128054740957875e+00
1.666666666666666519e+00
1.656891495601172881e+00
1.647116324535679244e+00
1.666666666666666519e+00
1.681329423264906975e+00
1.603128054740957875e+00
1.573802541544476963e+00
1.505376344086021501e+00
1.441837732160312857e+00
1.388074291300097629e+00
1.329423264907135804e+00
1.251221896383186705e+00
1.246334310850439886e+00
1.280547409579667617e+00
1.314760508308895348e+00
1.295210166177908073e+00
1.373411534701857173e+00
1.432062561094819220e+00
1.392961876832844448e+00
1.368523949169110354e+00
1.383186705767350810e+00
1.432062561094819220e+00
1.427174975562072401e+00
1.451612903225806495e+00
1.436950146627566038e+00
1.441837732160312857e+00
1.466275659824046951e+00
1.480938416422287407e+00
1.422287390029325582e+00
1.451612903225806495e+00
1.461388074291300132e+00
1.432062561094819220e+00
1.451612903225806495e+00
1.427174975562072401e+00
1.471163245356793770e+00
1.490713587487781044e+00
1.436950146627566038e+00
1.515151515151515138e+00
1.480938416422287407e+00
1.466275659824046951e+00
1.500488758553274682e+00
1.480938416422287407e+00
1.441837732160312857e+00
1.466275659824046951e+00
1.529814271749755594e+00
1.500488758553274682e+00
1.515151515151515138e+00
1.485826001955034226e+00
1.515151515151515138e+00
1.490713587487781044e+00
1.495601173020527863e+00
1.446725317693059676e+00
1.490713587487781044e+00
1.515151515151515138e+00
1.485826001955034226e+00
1.480938416422287407e+00
1.476050830889540588e+00
1.495601173020527863e+00
1.485826001955034226e+00
1.500488758553274682e+00
1.510263929618768319e+00
1.456500488758553313e+00
1.500488758553274682e+00
1.593352883675464238e+00
1.666666666666666519e+00
1.715542521994134706e+00
1.759530791788856519e+00
1.671554252199413337e+00
1.598240469208211056e+00
1.495601173020527863e+00
1.392961876832844448e+00
1.348973607038123079e+00
1.388074291300097629e+00
1.363636363636363535e+00
1.432062561094819220e+00
1.373411534701857173e+00
1.388074291300097629e+00
1.256109481915933523e+00
1.862170087976539712e+00
3.074291300097751645e+00
3.255131964809383938e+00
1.984359726295210180e+00
9.335288367546432653e-01
1.314760508308895348e+00
1.119257086999022377e+00
1.041055718475073277e+00
1.050830889540566915e+00
1.011730205278592365e+00
1.085043988269794646e+00
1.153470185728250108e+00
1.197458455522971699e+00
1.251221896383186705e+00
1.290322580645161255e+00
1.319648093841642167e+00
1.388074291300097629e+00
1.441837732160312857e+00
1.407624633431085126e+00
1.432062561094819220e+00
1.476050830889540588e+00
1.554252199413489688e+00
1.593352883675464238e+00
1.656891495601172881e+00
1.642228739002932425e+00
1.627565982404691969e+00
1.480938416422287407e+00
1.495601173020527863e+00
1.388074291300097629e+00
1.329423264907135804e+00
1.329423264907135804e+00
1.173020527859237605e+00
1.221896383186705792e+00
1.143695014662756471e+00
1.368523949169110354e+00
1.368523949169110354e+00
1.388074291300097629e+00
1.392961876832844448e+00
1.373411534701857173e+00
1.417399804496578763e+00
1.422287390029325582e+00
1.451612903225806495e+00
1.451612903225806495e+00
1.524926686217008776e+00
1.524926686217008776e+00
1.510263929618768319e+00
1.505376344086021501e+00
1.466275659824046951e+00
1.510263929618768319e+00
1.461388074291300132e+00
1.446725317693059676e+00
1.471163245356793770e+00
1.461388074291300132e+00
1.495601173020527863e+00
1.466275659824046951e+00
1.466275659824046951e+00
1.451612903225806495e+00
1.456500488758553313e+00
1.485826001955034226e+00
1.456500488758553313e+00
1.485826001955034226e+00
1.461388074291300132e+00
1.495601173020527863e+00
1.515151515151515138e+00
1.500488758553274682e+00
1.490713587487781044e+00
1.505376344086021501e+00
1.529814271749755594e+00
1.505376344086021501e+00
1.490713587487781044e+00
1.515151515151515138e+00
1.515151515151515138e+00
1.515151515151515138e+00
1.539589442815249232e+00
1.520039100684261957e+00
1.485826001955034226e+00
1.520039100684261957e+00
1.520039100684261957e+00
1.480938416422287407e+00
1.476050830889540588e+00
1.534701857282502413e+00
1.495601173020527863e+00
1.466275659824046951e+00
1.490713587487781044e+00
1.539589442815249232e+00
1.510263929618768319e+00
1.510263929618768319e+00
1.471163245356793770e+00
1.490713587487781044e+00
1.515151515151515138e+00
1.490713587487781044e+00
1.441837732160312857e+00
1.505376344086021501e+00
1.529814271749755594e+00
1.588465298142717419e+00
1.700879765395894250e+00
1.705767350928641068e+00
1.793743890518084250e+00
1.739980449657869244e+00
1.529814271749755594e+00
1.456500488758553313e+00
1.397849462365591267e+00
1.392961876832844448e+00
1.412512218963831945e+00
1.417399804496578763e+00
1.422287390029325582e+00
1.397849462365591267e+00
1.309872922776148529e+00
1.402737047898338085e+00
2.663734115347018427e+00
3.216031280547409388e+00
3.030303030303030276e+00
1.148582600195503289e+00
1.197458455522971699e+00
1.212121212121212155e+00
1.075268817204301008e+00
1.041055718475073277e+00
1.119257086999022377e+00
1.045943304007820096e+00
1.016617790811339184e+00
1.094819159335288283e+00
1.221896383186705792e+00
1.324535679374388986e+00
1.304985337243401711e+00
1.329423264907135804e+00
1.402737047898338085e+00
1.402737047898338085e+00
1.446725317693059676e+00
1.466275659824046951e+00
1.573802541544476963e+00
1.583577712609970600e+00
1.642228739002932425e+00
1.608015640273704694e+00
1.598240469208211056e+00
1.622678396871945150e+00
1.578690127077223782e+00
1.568914956011730144e+00
1.534701857282502413e+00
1.436950146627566038e+00
1.358748778103616717e+00
1.290322580645161255e+00
1.329423264907135804e+00
1.260997067448680342e+00
1.280547409579667617e+00
1.212121212121212155e+00
1.197458455522971699e+00
1.256109481915933523e+00
1.314760508308895348e+00
1.275659824046920798e+00
1.300097751710654892e+00
1.319648093841642167e+00
1.300097751710654892e+00
1.456500488758553313e+00
1.510263929618768319e+00
1.529814271749755594e+00
1.510263929618768319e+00
1.456500488758553313e+00
1.500488758553274682e+00
1.490713587487781044e+00
1.480938416422287407e+00
1.436950146627566038e+00
1.471163245356793770e+00
1.485826001955034226e+00
1.480938416422287407e+00
1.461388074291300132e+00
1.476050830889540588e+00
1.436950146627566038e+00
1.539589442815249232e+00
1.471163245356793770e+00
1.456500488758553313e+00
1.451612903225806495e+00
1.524926686217008776e+00
1.446725317693059676e+00
1.485826001955034226e+00
1.461388074291300132e+00
1.515151515151515138e+00
1.539589442815249232e+00
1.500488758553274682e+00
1.500488758553274682e+00
1.524926686217008776e+00
1.500488758553274682e+00
1.485826001955034226e+00
1.500488758553274682e+00
1.534701857282502413e+00
1.510263929618768319e+00
1.529814271749755594e+00
1.485826001955034226e+00
1.500488758553274682e+00
1.510263929618768319e+00
1.485826001955034226e+00
1.476050830889540588e+00
1.510263929618768319e+00
1.524926686217008776e+00
1.529814271749755594e+00
1.485826001955034226e+00
1.568914956011730144e+00
1.671554252199413337e+00
1.700879765395894250e+00
1.759530791788856519e+00
1.700879765395894250e+00
1.568914956011730144e+00
1.441837732160312857e+00
1.383186705767350810e+00
1.407624633431085126e+00
1.407624633431085126e+00
1.378299120234603992e+00
1.388074291300097629e+00
1.397849462365591267e+00
1.290322580645161255e+00
1.353861192570869898e+00
2.507331378299120228e+00
3.206256109481915750e+00
3.025415444770283457e+00
1.060606060606060552e+00
1.109481915933528740e+00
1.251221896383186705e+00
1.094819159335288283e+00
1.075268817204301008e+00
1.080156402737047827e+00
1.104594330400781921e+00
1.138807429130009652e+00
1.187683284457478061e+00
1.251221896383186705e+00
1.275659824046920798e+00
1.314760508308895348e+00
1.339198435972629442e+00
1.378299120234603992e+00
1.422287390029325582e+00
1.480938416422287407e+00
1.549364613880742869e+00
1.534701857282502413e+00
1.608015640273704694e+00
1.603128054740957875e+00
1.637341153470185606e+00
1.642228739002932425e+00
1.661779081133919700e+00
1.583577712609970600e+00
1.583577712609970600e+00
1.510263929618768319e+00
1.417399804496578763e+00
1.363636363636363535e+00
1.324535679374388986e+00
1.260997067448680342e+00
1.309872922776148529e+00
1.285434995112414436e+00
1.300097751710654892e+00
1.309872922776148529e+00
1.309872922776148529e+00
1.348973607038123079e+00
1.324535679374388986e+00
1.383186705767350810e+00
1.476050830889540588e+00
1.412512218963831945e+00
1.427174975562072401e+00
1.432062561094819220e+00
1.441837732160312857e+00
1.471163245356793770e+00
1.476050830889540588e+00
1.476050830889540588e+00
1.461388074291300132e+00
1.446725317693059676e+00
1.441837732160312857e+00
1.432062561094819220e+00
1.329423264907135804e+00
1.358748778103616717e+00
1.334310850439882623e+00
1.392961876832844448e+00
1.397849462365591267e+00
1.324535679374388986e+00
1.392961876832844448e+00
1.353861192570869898e+00
1.510263929618768319e+00
1.529814271749755594e+00
1.524926686217008776e+00
1.480938416422287407e+00
1.505376344086021501e+00
1.568914956011730144e+00
1.515151515151515138e+00
1.480938416422287407e+00
1.446725317693059676e+00
1.505376344086021501e+00
1.505376344086021501e+00
1.505376344086021501e+00
1.476050830889540588e+00
1.510263929618768319e+00
1.490713587487781044e+00
1.510263929618768319e+00
1.490713587487781044e+00
1.476050830889540588e+00
1.495601173020527863e+00
1.476050830889540588e+00
1.554252199413489688e+00
1.608015640273704694e+00
1.666666666666666519e+00
1.691104594330400612e+00
1.739980449657869244e+00
1.622678396871945150e+00
1.529814271749755594e+00
1.397849462365591267e+00
1.344086021505376261e+00
1.334310850439882623e+00
1.334310850439882623e+00
1.314760508308895348e+00
1.368523949169110354e+00
1.397849462365591267e+00
1.246334310850439886e+00
1.295210166177908073e+00
2.487781036168132953e+00
3.211143695014662569e+00
3.040078201368523914e+00
1.031280547409579640e+00
1.099706744868035102e+00
1.226783968719452611e+00
1.094819159335288283e+00
1.021505376344086002e+00
1.026392961876832821e+00
1.129032258064516014e+00
1.109481915933528740e+00
1.138807429130009652e+00
1.236559139784946248e+00
1.251221896383186705e+00
1.344086021505376261e+00
1.344086021505376261e+00
1.378299120234603992e+00
1.466275659824046951e+00
1.451612903225806495e+00
1.466275659824046951e+00
1.534701857282502413e+00
1.578690127077223782e+00
1.632453567937438788e+00
1.632453567937438788e+00
1.661779081133919700e+00
1.617790811339198331e+00
1.588465298142717419e+00
1.603128054740957875e+00
1.510263929618768319e+00
1.441837732160312857e+00
1.348973607038123079e+00
1.324535679374388986e+00
1.270772238514173980e+00
1.290322580645161255e+00
1.304985337243401711e+00
1.290322580645161255e+00
1.295210166177908073e+00
1.348973607038123079e+00
1.334310850439882623e+00
1.412512218963831945e+00
1.388074291300097629e+00
1.427174975562072401e+00
1.441837732160312857e+00
1.436950146627566038e+00
1.436950146627566038e+00
1.461388074291300132e+00
1.495601173020527863e+00
1.476050830889540588e+00
1.515151515151515138e+00
1.471163245356793770e+00
1.485826001955034226e+00
1.495601173020527863e+00
1.432062561094819220e+00
1.461388074291300132e+00
1.505376344086021501e+00
1.476050830889540588e+00
1.441837732160312857e+00
1.436950146627566038e+00
1.485826001955034226e+00
1.500488758553274682e+00
1.427174975562072401e+00
1.515151515151515138e+00
1.441837732160312857e+00
1.466275659824046951e+00
1.510263929618768319e+00
1.510263929618768319e+00
1.485826001955034226e+00
1.520039100684261957e+00
1.505376344086021501e+00
1.515151515151515138e+00
1.480938416422287407e+00
1.485826001955034226e+00
1.480938416422287407e+00
1.456500488758553313e+00
1.353861192570869898e+00
1.353861192570869898e+00
1.378299120234603992e+00
1.441837732160312857e+00
1.397849462365591267e+00
1.480938416422287407e+00
1.441837732160312857e+00
1.427174975562072401e+00
1.749755620723362881e+00
1.774193548387096975e+00
1.881720430107526987e+00
1.749755620723362881e+00
1.598240469208211056e+00
1.564027370478983325e+00
1.466275659824046951e+00
1.363636363636363535e+00
1.353861192570869898e+00
1.368523949169110354e+00
1.407624633431085126e+00
1.383186705767350810e+00
1.368523949169110354e+00
1.251221896383186705e+00
1.730205278592375606e+00
3.035190615835777095e+00
3.250244379276637119e+00
2.165200391006842473e+00
9.677419354838709964e-01
1.275659824046920798e+00
1.187683284457478061e+00
1.060606060606060552e+00
1.031280547409579640e+00
1.055718475073313734e+00
1.104594330400781921e+00
1.158357771260996927e+00
1.177908113391984424e+00
1.202346041055718517e+00
1.256109481915933523e+00
1.300097751710654892e+00
1.373411534701857173e+00
1.324535679374388986e+00
1.412512218963831945e+00
1.456500488758553313e+00
1.510263929618768319e+00
1.524926686217008776e+00
1.588465298142717419e+00
1.642228739002932425e+00
1.622678396871945150e+00
1.647116324535679244e+00
1.627565982404691969e+00
1.612903225806451513e+00
1.534701857282502413e+00
1.441837732160312857e+00
1.407624633431085126e+00
1.309872922776148529e+00
1.295210166177908073e+00
1.314760508308895348e+00
1.309872922776148529e+00
1.309872922776148529e+00
1.353861192570869898e+00
1.334310850439882623e+00
1.344086021505376261e+00
1.388074291300097629e+00
1.422287390029325582e+00
1.436950146627566038e+00
1.427174975562072401e+00
1.417399804496578763e+00
1.451612903225806495e+00
1.451612903225806495e+00
1.471163245356793770e+00
1.510263929618768319e+00
1.485826001955034226e+00
1.476050830889540588e+00
1.529814271749755594e+00
1.461388074291300132e+00
1.432062561094819220e+00
1.480938416422287407e+00
1.422287390029325582e+00
1.451612903225806495e+00
1.451612903225806495e+00
1.480938416422287407e+00
1.520039100684261957e+00
1.490713587487781044e+00
1.495601173020527863e+00
1.480938416422287407e+00
1.505376344086021501e+00
1.485826001955034226e+00
1.466275659824046951e+00
1.495601173020527863e+00
1.510263929618768319e+00
1.471163245356793770e+00
1.515151515151515138e+00
1.471163245356793770e+00
1.490713587487781044e+00
1.480938416422287407e+00
1.500488758553274682e+00
1.500488758553274682e+00
1.490713587487781044e+00
1.500488758553274682e+00
1.490713587487781044e+00
1.559139784946236507e+00
1.446725317693059676e+00
1.505376344086021501e+00
1.515151515151515138e+00
1.578690127077223782e+00
1.637341153470185606e+00
1.720430107526881969e+00
1.754643206256109700e+00
1.681329423264906975e+00
1.554252199413489688e+00
1.402737047898338085e+00
1.397849462365591267e+00
1.373411534701857173e+00
1.383186705767350810e+00
1.334310850439882623e+00
1.388074291300097629e+00
1.383186705767350810e+00
1.319648093841642167e+00
1.236559139784946248e+00
1.881720430107526987e+00
3.103616813294232557e+00
3.250244379276637119e+00
1.275659824046920798e+00
8.993157380254155342e-01
1.256109481915933523e+00
1.070381231671554190e+00
8.944281524926687155e-01
1.187683284457478061e+00
1.163245356793743746e+00
1.226783968719452611e+00
1.300097751710654892e+00
1.300097751710654892e+00
1.353861192570869898e+00
1.436950146627566038e+00
1.412512218963831945e+00
1.397849462365591267e+00
1.515151515151515138e+00
1.505376344086021501e+00
1.466275659824046951e+00
1.612903225806451513e+00
1.647116324535679244e+00
1.637341153470185606e+00
1.695992179863147431e+00
1.686217008797653794e+00
1.642228739002932425e+00
1.666666666666666519e+00
1.681329423264906975e+00
1.529814271749755594e+00
1.490713587487781044e+00
1.407624633431085126e+00
1.324535679374388986e+00
1.290322580645161255e+00
1.275659824046920798e+00
1.275659824046920798e+00
1.295210166177908073e+00
1.314760508308895348e+00
1.324535679374388986e+00
1.348973607038123079e+00
1.368523949169110354e+00
1.348973607038123079e+00
1.407624633431085126e+00
1.402737047898338085e+00
1.373411534701857173e+00
1.407624633431085126e+00
1.417399804496578763e+00
1.480938416422287407e+00
1.485826001955034226e+00
1.495601173020527863e+00
1.392961876832844448e+00
1.422287390029325582e+00
1.466275659824046951e+00
1.466275659824046951e+00
1.471163245356793770e+00
1.446725317693059676e+00
1.471163245356793770e+00
1.476050830889540588e+00
1.456500488758553313e+00
1.422287390029325582e+00
1.417399804496578763e+00
1.476050830889540588e+00
1.456500488758553313e+00
1.412512218963831945e+00
1.461388074291300132e+00
1.480938416422287407e+00
1.485826001955034226e+00
1.480938416422287407e+00
1.476050830889540588e+00
1.446725317693059676e+00
1.480938416422287407e+00
1.500488758553274682e+00
1.573802541544476963e+00
1.715542521994134706e+00
1.725317693059628787e+00
1.764418377321603337e+00
1.637341153470185606e+00
1.544477028347996050e+00
1.417399804496578763e+00
1.373411534701857173e+00
1.319648093841642167e+00
1.319648093841642167e+00
1.392961876832844448e+00
1.373411534701857173e+00
1.417399804496578763e+00
1.358748778103616717e+00
1.207233626588465336e+00
1.798631476050831068e+00
3.044965786901270732e+00
3.240469208211143481e+00
1.886608015640273806e+00
8.211143695014662125e-01
1.256109481915933523e+00
1.182795698924731242e+00
1.070381231671554190e+00
1.109481915933528740e+00
1.153470185728250108e+00
1.119257086999022377e+00
1.148582600195503289e+00
1.304985337243401711e+00
1.285434995112414436e+00
1.285434995112414436e+00
1.339198435972629442e+00
1.368523949169110354e+00
1.422287390029325582e+00
1.422287390029325582e+00
1.505376344086021501e+00
1.549364613880742869e+00
1.573802541544476963e+00
1.622678396871945150e+00
1.666666666666666519e+00
1.647116324535679244e+00
1.647116324535679244e+00
1.656891495601172881e+00
1.608015640273704694e+00
1.515151515151515138e+00
1.441837732160312857e+00
1.383186705767350810e+00
1.319648093841642167e+00
1.265884652981427161e+00
1.124144672531769196e+00
1.109481915933528740e+00
1.192570869990224880e+00
1.221896383186705792e+00
1.148582600195503289e+00
1.265884652981427161e+00
1.256109481915933523e+00
1.427174975562072401e+00
1.515151515151515138e+00
1.480938416422287407e+00
1.490713587487781044e+00
1.554252199413489688e+00
1.490713587487781044e+00
1.476050830889540588e+00
1.495601173020527863e+00
1.480938416422287407e+00
1.495601173020527863e+00
1.520039100684261957e+00
1.505376344086021501e+00
1.505376344086021501e+00
1.505376344086021501e+00
1.520039100684261957e+00
1.466275659824046951e+00
1.471163245356793770e+00
1.480938416422287407e+00
1.485826001955034226e+00
1.529814271749755594e+00
1.461388074291300132e+00
1.485826001955034226e+00
1.500488758553274682e+00
1.500488758553274682e+00
1.466275659824046951e+00
1.500488758553274682e+00
1.515151515151515138e+00
1.549364613880742869e+00
1.495601173020527863e+00
1.520039100684261957e+00
1.480938416422287407e+00
1.490713587487781044e+00
1.515151515151515138e+00
1.510263929618768319e+00
1.515151515151515138e+00
1.505376344086021501e+00
1.461388074291300132e+00
1.495601173020527863e+00
1.515151515151515138e+00
1.505376344086021501e+00
1.505376344086021501e+00
1.500488758553274682e+00
1.461388074291300132e+00
1.500488758553274682e+00
1.520039100684261957e+00
1.505376344086021501e+00
1.539589442815249232e+00
1.671554252199413337e+00
1.735092864125122425e+00
1.749755620723362881e+00
1.730205278592375606e+00
1.612903225806451513e+00
1.539589442815249232e+00
1.436950146627566038e+00
1.378299120234603992e+00
1.348973607038123079e+00
1.402737047898338085e+00
1.383186705767350810e+00
1.402737047898338085e+00
1.412512218963831945e+00
1.217008797653958974e+00
1.759530791788856519e+00
3.054740957966764370e+00
3.250244379276637119e+00
2.199413489736070204e+00
1.006842619745845546e+00
1.280547409579667617e+00
1.133919843597262833e+00
1.104594330400781921e+00
1.036168132942326459e+00
1.070381231671554190e+00
1.085043988269794646e+00
1.173020527859237605e+00
1.177908113391984424e+00
1.260997067448680342e+00
1.300097751710654892e+00
1.339198435972629442e+00
1.417399804496578763e+00
1.397849462365591267e+00
1.432062561094819220e+00
1.485826001955034226e+00
1.500488758553274682e+00
1.564027370478983325e+00
1.593352883675464238e+00
1.637341153470185606e+00
1.666666666666666519e+00
1.578690127077223782e+00
1.622678396871945150e+00
1.578690127077223782e+00
1.544477028347996050e+00
1.441837732160312857e+00
1.373411534701857173e+00
1.329423264907135804e+00
1.309872922776148529e+00
1.280547409579667617e+00
1.275659824046920798e+00
1.275659824046920798e+00
1.319648093841642167e+00
1.344086021505376261e+00
1.319648093841642167e+00
1.339198435972629442e+00
1.407624633431085126e+00
1.388074291300097629e+00
1.446725317693059676e+00
1.451612903225806495e+00
1.441837732160312857e+00
1.466275659824046951e+00
1.456500488758553313e+00
1.446725317693059676e+00
1.480938416422287407e+00
1.495601173020527863e+00
1.295210166177908073e+00
1.344086021505376261e+00
1.383186705767350810e+00
1.363636363636363535e+00
1.388074291300097629e+00
1.417399804496578763e+00
1.388074291300097629e+00
1.392961876832844448e+00
1.573802541544476963e+00
1.510263929618768319e+00
1.485826001955034226e+00
1.500488758553274682e+00
1.505376344086021501e+00
1.529814271749755594e+00
1.505376344086021501e+00
1.500488758553274682e+00
1.495601173020527863e+00
1.495601173020527863e+00
1.549364613880742869e+00
1.505376344086021501e+00
1.471163245356793770e+00
1.485826001955034226e+00
1.520039100684261957e+00
1.529814271749755594e+00
1.520039100684261957e+00
1.476050830889540588e+00
1.510263929618768319e+00
1.544477028347996050e+00
1.520039100684261957e+00
1.495601173020527863e+00
1.490713587487781044e+00
1.573802541544476963e+00
1.539589442815249232e+00
1.500488758553274682e+00
1.505376344086021501e+00
1.510263929618768319e+00
1.505376344086021501e+00
1.524926686217008776e+00
1.520039100684261957e+00
1.495601173020527863e+00
1.524926686217008776e+00
1.534701857282502413e+00
1.480938416422287407e+00
1.544477028347996050e+00
1.681329423264906975e+00
1.710654936461387887e+00
1.764418377321603337e+00
1.686217008797653794e+00
1.564027370478983325e+00
1.490713587487781044e+00
1.417399804496578763e+00
1.402737047898338085e+00
1.368523949169110354e+00
1.368523949169110354e+00
1.417399804496578763e+00
1.388074291300097629e+00
1.348973607038123079e+00
1.270772238514173980e+00
2.077223851417399736e+00
3.152492668621700744e+00
3.255131964809383938e+00
1.695992179863147431e+00
9.970674486803519088e-01
1.256109481915933523e+00
1.094819159335288283e+00
1.016617790811339184e+00
1.041055718475073277e+00
1.080156402737047827e+00
1.129032258064516014e+00
1.163245356793743746e+00
1.202346041055718517e+00
1.202346041055718517e+00
1.246334310850439886e+00
1.319648093841642167e+00
1.378299120234603992e+00
1.397849462365591267e+00
1.436950146627566038e+00
1.456500488758553313e+00
1.524926686217008776e+00
1.500488758553274682e+00
1.612903225806451513e+00
1.598240469208211056e+00
1.622678396871945150e+00
1.622678396871945150e+00
1.617790811339198331e+00
1.583577712609970600e+00
1.515151515151515138e+00
