0.000000000000000000e+00
1.466275659824046951e+00
1.456500488758553313e+00
1.529814271749755594e+00
1.583577712609970600e+00
1.520039100684261957e+00
1.534701857282502413e+00
1.554252199413489688e+00
1.564027370478983325e+00
1.520039100684261957e+00
1.544477028347996050e+00
1.612903225806451513e+00
1.485826001955034226e+00
1.505376344086021501e+00
1.520039100684261957e+00
1.539589442815249232e+00
1.578690127077223782e+00
1.573802541544476963e+00
1.559139784946236507e+00
1.505376344086021501e+00
1.554252199413489688e+00
1.554252199413489688e+00
1.539589442815249232e+00
1.549364613880742869e+00
4.887585532746823065e-03
1.436950146627566038e+00
1.466275659824046951e+00
1.466275659824046951e+00
1.456500488758553313e+00
1.529814271749755594e+00
1.583577712609970600e+00
1.520039100684261957e+00
1.534701857282502413e+00
1.554252199413489688e+00
1.564027370478983325e+00
1.520039100684261957e+00
1.544477028347996050e+00
1.612903225806451513e+00
1.485826001955034226e+00
1.505376344086021501e+00
1.520039100684261957e+00
1.539589442815249232e+00
1.578690127077223782e+00
1.573802541544476963e+00
1.559139784946236507e+00
1.505376344086021501e+00
1.554252199413489688e+00
1.554252199413489688e+00
1.539589442815249232e+00
1.549364613880742869e+00
1.583577712609970600e+00
1.583577712609970600e+00
1.564027370478983325e+00
1.676441837732160156e+00
1.441837732160312857e+00
1.505376344086021501e+00
1.603128054740957875e+00
1.500488758553274682e+00
1.446725317693059676e+00
1.480938416422287407e+00
1.451612903225806495e+00
1.520039100684261957e+00
1.559139784946236507e+00
1.598240469208211056e+00
1.412512218963831945e+00
1.446725317693059676e+00
1.867057673509286531e+00
1.783968719452590612e+00
1.373411534701857173e+00
1.436950146627566038e+00
1.529814271749755594e+00
1.549364613880742869e+00
1.432062561094819220e+00
1.930596285434995174e+00
1.652003910068426062e+00
1.671554252199413337e+00
1.441837732160312857e+00
1.344086021505376261e+00
1.671554252199413337e+00
1.432062561094819220e+00
1.666666666666666519e+00
1.876832844574780168e+00
1.173020527859237605e+00
1.495601173020527863e+00
1.564027370478983325e+00
1.270772238514173980e+00
1.436950146627566038e+00
1.544477028347996050e+00
1.427174975562072401e+00
1.529814271749755594e+00
0.000000000000000000e+00
1.402737047898338085e+00
1.515151515151515138e+00
1.735092864125122425e+00
1.427174975562072401e+00
1.231671554252199430e+00
1.730205278592375606e+00
1.251221896383186705e+00
1.876832844574780168e+00
1.309872922776148529e+00
1.710654936461387887e+00
1.490713587487781044e+00
1.217008797653958974e+00
1.715542521994134706e+00
1.490713587487781044e+00
1.260997067448680342e+00
1.578690127077223782e+00
1.363636363636363535e+00
1.270772238514173980e+00
1.295210166177908073e+00
1.617790811339198331e+00
1.754643206256109700e+00
1.656891495601172881e+00
1.280547409579667617e+00
1.554252199413489688e+00
1.114369501466275558e+00
1.412512218963831945e+00
2.101661779081133830e+00
1.060606060606060552e+00
1.495601173020527863e+00
1.476050830889540588e+00
1.652003910068426062e+00
1.617790811339198331e+00
1.334310850439882623e+00
2.390029325513196579e+00
1.837732160312805618e+00
9.677419354838709964e-01
1.251221896383186705e+00
1.451612903225806495e+00
1.300097751710654892e+00
1.695992179863147431e+00
1.495601173020527863e+00
1.417399804496578763e+00
1.270772238514173980e+00
1.353861192570869898e+00
1.827956989247311981e+00
9.677419354838709964e-01
1.808406647116324706e+00
1.099706744868035102e+00
1.632453567937438788e+00
1.202346041055718517e+00
1.412512218963831945e+00
1.837732160312805618e+00
1.094819159335288283e+00
1.759530791788856519e+00
1.080156402737047827e+00
1.392961876832844448e+00
1.632453567937438788e+00
1.559139784946236507e+00
1.129032258064516014e+00
1.612903225806451513e+00
1.241446725317693067e+00
1.270772238514173980e+00
1.334310850439882623e+00
1.422287390029325582e+00
1.348973607038123079e+00
1.593352883675464238e+00
1.295210166177908073e+00
1.275659824046920798e+00
1.427174975562072401e+00
1.461388074291300132e+00
1.480938416422287407e+00
1.466275659824046951e+00
1.417399804496578763e+00
1.407624633431085126e+00
1.427174975562072401e+00
1.417399804496578763e+00
1.412512218963831945e+00
1.441837732160312857e+00
1.344086021505376261e+00
1.329423264907135804e+00
1.358748778103616717e+00
1.368523949169110354e+00
1.373411534701857173e+00
1.451612903225806495e+00
1.353861192570869898e+00
1.402737047898338085e+00
1.520039100684261957e+00
1.363636363636363535e+00
1.397849462365591267e+00
1.378299120234603992e+00
1.378299120234603992e+00
1.397849462365591267e+00
1.407624633431085126e+00
1.358748778103616717e+00
1.378299120234603992e+00
1.471163245356793770e+00
1.480938416422287407e+00
1.344086021505376261e+00
1.422287390029325582e+00
1.436950146627566038e+00
1.451612903225806495e+00
1.451612903225806495e+00
1.456500488758553313e+00
1.461388074291300132e+00
1.476050830889540588e+00
1.402737047898338085e+00
1.436950146627566038e+00
1.446725317693059676e+00
1.427174975562072401e+00
1.451612903225806495e+00
1.451612903225806495e+00
1.476050830889540588e+00
1.485826001955034226e+00
1.441837732160312857e+00
1.441837732160312857e+00
1.446725317693059676e+00
1.466275659824046951e+00
1.495601173020527863e+00
1.466275659824046951e+00
1.480938416422287407e+00
1.539589442815249232e+00
1.476050830889540588e+00
1.544477028347996050e+00
1.480938416422287407e+00
1.500488758553274682e+00
1.539589442815249232e+00
1.515151515151515138e+00
1.529814271749755594e+00
1.544477028347996050e+00
1.598240469208211056e+00
1.485826001955034226e+00
1.436950146627566038e+00
1.427174975562072401e+00
1.456500488758553313e+00
1.485826001955034226e+00
1.515151515151515138e+00
1.456500488758553313e+00
1.432062561094819220e+00
1.544477028347996050e+00
1.612903225806451513e+00
1.583577712609970600e+00
1.593352883675464238e+00
1.588465298142717419e+00
1.603128054740957875e+00
1.583577712609970600e+00
1.490713587487781044e+00
1.539589442815249232e+00
1.564027370478983325e+00
1.539589442815249232e+00
1.544477028347996050e+00
1.559139784946236507e+00
1.583577712609970600e+00
1.593352883675464238e+00
1.632453567937438788e+00
1.480938416422287407e+00
1.471163245356793770e+00
1.392961876832844448e+00
1.554252199413489688e+00
1.515151515151515138e+00
1.603128054740957875e+00
1.564027370478983325e+00
1.554252199413489688e+00
1.510263929618768319e+00
1.495601173020527863e+00
1.539589442815249232e+00
1.461388074291300132e+00
1.471163245356793770e+00
1.495601173020527863e+00
1.524926686217008776e+00
1.485826001955034226e+00
1.520039100684261957e+00
1.529814271749755594e+00
1.524926686217008776e+00
1.583577712609970600e+00
1.515151515151515138e+00
1.505376344086021501e+00
1.500488758553274682e+00
1.520039100684261957e+00
1.529814271749755594e+00
1.520039100684261957e+00
1.500488758553274682e+00
1.539589442815249232e+00
1.544477028347996050e+00
1.534701857282502413e+00
1.490713587487781044e+00
1.520039100684261957e+00
1.529814271749755594e+00
1.534701857282502413e+00
1.495601173020527863e+00
1.461388074291300132e+00
1.544477028347996050e+00
1.461388074291300132e+00
1.520039100684261957e+00
1.471163245356793770e+00
1.510263929618768319e+00
1.573802541544476963e+00
1.505376344086021501e+00
1.495601173020527863e+00
1.505376344086021501e+00
1.524926686217008776e+00
1.510263929618768319e+00
1.539589442815249232e+00
1.490713587487781044e+00
1.515151515151515138e+00
1.515151515151515138e+00
1.529814271749755594e+00
1.500488758553274682e+00
1.529814271749755594e+00
1.524926686217008776e+00
1.500488758553274682e+00
1.495601173020527863e+00
1.524926686217008776e+00
1.583577712609970600e+00
1.485826001955034226e+00
1.485826001955034226e+00
1.490713587487781044e+00
1.510263929618768319e+00
1.559139784946236507e+00
1.510263929618768319e+00
1.461388074291300132e+00
1.480938416422287407e+00
1.515151515151515138e+00
1.539589442815249232e+00
1.539589442815249232e+00
1.515151515151515138e+00
1.505376344086021501e+00
1.495601173020527863e+00
1.471163245356793770e+00
1.524926686217008776e+00
1.520039100684261957e+00
1.500488758553274682e+00
1.505376344086021501e+00
1.524926686217008776e+00
1.534701857282502413e+00
1.524926686217008776e+00
1.500488758553274682e+00
1.520039100684261957e+00
1.515151515151515138e+00
1.573802541544476963e+00
1.476050830889540588e+00
1.495601173020527863e+00
1.490713587487781044e+00
1.544477028347996050e+00
1.471163245356793770e+00
1.490713587487781044e+00
1.495601173020527863e+00
1.515151515151515138e+00
1.510263929618768319e+00
1.490713587487781044e+00
1.397849462365591267e+00
1.358748778103616717e+00
1.348973607038123079e+00
1.407624633431085126e+00
1.412512218963831945e+00
1.432062561094819220e+00
1.427174975562072401e+00
1.490713587487781044e+00
1.549364613880742869e+00
1.568914956011730144e+00
1.554252199413489688e+00
1.554252199413489688e+00
1.500488758553274682e+00
1.510263929618768319e+00
1.564027370478983325e+00
1.534701857282502413e+00
1.534701857282502413e+00
1.515151515151515138e+00
1.485826001955034226e+00
1.490713587487781044e+00
1.510263929618768319e+00
1.456500488758553313e+00
1.476050830889540588e+00
1.529814271749755594e+00
1.510263929618768319e+00
1.520039100684261957e+00
1.524926686217008776e+00
1.495601173020527863e+00
1.510263929618768319e+00
1.515151515151515138e+00
1.495601173020527863e+00
1.510263929618768319e+00
1.490713587487781044e+00
1.529814271749755594e+00
1.485826001955034226e+00
1.495601173020527863e+00
1.495601173020527863e+00
1.510263929618768319e+00
1.510263929618768319e+00
1.495601173020527863e+00
1.515151515151515138e+00
1.505376344086021501e+00
1.480938416422287407e+00
1.529814271749755594e+00
1.520039100684261957e+00
1.539589442815249232e+00
1.476050830889540588e+00
1.480938416422287407e+00
1.515151515151515138e+00
1.505376344086021501e+00
1.490713587487781044e+00
1.485826001955034226e+00
1.515151515151515138e+00
1.471163245356793770e+00
1.466275659824046951e+00
1.510263929618768319e+00
1.515151515151515138e+00
1.466275659824046951e+00
1.476050830889540588e+00
1.480938416422287407e+00
1.456500488758553313e+00
1.471163245356793770e+00
1.490713587487781044e+00
1.495601173020527863e+00
1.485826001955034226e+00
1.505376344086021501e+00
1.564027370478983325e+00
1.490713587487781044e+00
1.510263929618768319e+00
1.407624633431085126e+00
1.461388074291300132e+00
1.476050830889540588e+00
1.446725317693059676e+00
1.480938416422287407e+00
1.500488758553274682e+00
1.461388074291300132e+00
1.500488758553274682e+00
1.476050830889540588e+00
1.446725317693059676e+00
1.520039100684261957e+00
1.466275659824046951e+00
1.505376344086021501e+00
1.500488758553274682e+00
1.495601173020527863e+00
1.510263929618768319e+00
1.539589442815249232e+00
1.505376344086021501e+00
1.495601173020527863e+00
1.490713587487781044e+00
1.471163245356793770e+00
1.422287390029325582e+00
1.461388074291300132e+00
1.466275659824046951e+00
1.520039100684261957e+00
1.490713587487781044e+00
1.510263929618768319e+00
1.480938416422287407e+00
1.490713587487781044e+00
1.505376344086021501e+00
1.417399804496578763e+00
1.436950146627566038e+00
1.480938416422287407e+00
1.500488758553274682e+00
1.490713587487781044e+00
1.471163245356793770e+00
1.554252199413489688e+00
1.466275659824046951e+00
1.485826001955034226e+00
1.476050830889540588e+00
1.466275659824046951e+00
1.471163245356793770e+00
1.466275659824046951e+00
1.485826001955034226e+00
1.529814271749755594e+00
1.466275659824046951e+00
1.520039100684261957e+00
1.461388074291300132e+00
1.500488758553274682e+00
1.485826001955034226e+00
1.388074291300097629e+00
1.397849462365591267e+00
1.392961876832844448e+00
1.392961876832844448e+00
1.402737047898338085e+00
1.412512218963831945e+00
1.397849462365591267e+00
1.544477028347996050e+00
1.588465298142717419e+00
1.534701857282502413e+00
1.471163245356793770e+00
1.524926686217008776e+00
1.515151515151515138e+00
1.495601173020527863e+00
1.510263929618768319e+00
1.451612903225806495e+00
1.485826001955034226e+00
1.515151515151515138e+00
1.485826001955034226e+00
1.466275659824046951e+00
1.480938416422287407e+00
1.476050830889540588e+00
1.490713587487781044e+00
1.539589442815249232e+00
1.495601173020527863e+00
1.490713587487781044e+00
1.510263929618768319e+00
1.544477028347996050e+00
1.495601173020527863e+00
1.505376344086021501e+00
1.520039100684261957e+00
1.534701857282502413e+00
1.524926686217008776e+00
1.539589442815249232e+00
1.505376344086021501e+00
1.524926686217008776e+00
1.559139784946236507e+00
1.476050830889540588e+00
1.412512218963831945e+00
1.485826001955034226e+00
1.480938416422287407e+00
1.505376344086021501e+00
1.446725317693059676e+00
1.461388074291300132e+00
1.490713587487781044e+00
1.505376344086021501e+00
1.480938416422287407e+00
1.480938416422287407e+00
1.495601173020527863e+00
1.456500488758553313e+00
1.510263929618768319e+00
1.466275659824046951e+00
1.471163245356793770e+00
1.500488758553274682e+00
1.480938416422287407e+00
1.500488758553274682e+00
1.544477028347996050e+00
1.461388074291300132e+00
1.524926686217008776e+00
1.471163245356793770e+00
1.476050830889540588e+00
1.456500488758553313e+00
1.471163245356793770e+00
1.500488758553274682e+00
1.476050830889540588e+00
1.461388074291300132e+00
1.466275659824046951e+00
1.480938416422287407e+00
1.461388074291300132e+00
1.490713587487781044e+00
1.505376344086021501e+00
1.446725317693059676e+00
1.476050830889540588e+00
1.456500488758553313e+00
1.466275659824046951e+00
1.520039100684261957e+00
1.534701857282502413e+00
1.544477028347996050e+00
1.480938416422287407e+00
1.490713587487781044e+00
1.432062561094819220e+00
1.417399804496578763e+00
1.505376344086021501e+00
1.510263929618768319e+00
1.451612903225806495e+00
1.466275659824046951e+00
1.500488758553274682e+00
1.534701857282502413e+00
1.539589442815249232e+00
1.480938416422287407e+00
1.534701857282502413e+00
1.515151515151515138e+00
1.515151515151515138e+00
1.495601173020527863e+00
1.451612903225806495e+00
1.441837732160312857e+00
1.407624633431085126e+00
1.471163245356793770e+00
1.588465298142717419e+00
1.427174975562072401e+00
1.549364613880742869e+00
1.500488758553274682e+00
1.524926686217008776e+00
1.583577712609970600e+00
1.456500488758553313e+00
1.412512218963831945e+00
1.510263929618768319e+00
1.505376344086021501e+00
1.554252199413489688e+00
1.480938416422287407e+00
1.500488758553274682e+00
1.520039100684261957e+00
1.593352883675464238e+00
1.568914956011730144e+00
1.446725317693059676e+00
1.495601173020527863e+00
1.471163245356793770e+00
1.500488758553274682e+00
1.373411534701857173e+00
1.544477028347996050e+00
1.549364613880742869e+00
1.417399804496578763e+00
1.412512218963831945e+00
1.578690127077223782e+00
1.397849462365591267e+00
1.656891495601172881e+00
1.652003910068426062e+00
1.725317693059628787e+00
1.407624633431085126e+00
1.524926686217008776e+00
1.676441837732160156e+00
1.568914956011730144e+00
1.642228739002932425e+00
1.710654936461387887e+00
1.529814271749755594e+00
1.265884652981427161e+00
1.608015640273704694e+00
1.730205278592375606e+00
1.402737047898338085e+00
1.471163245356793770e+00
1.925708699902248355e+00
1.617790811339198331e+00
1.901270772238514262e+00
1.246334310850439886e+00
1.627565982404691969e+00
1.901270772238514262e+00
1.480938416422287407e+00
1.324535679374388986e+00
1.231671554252199430e+00
2.160312805474095654e+00
1.534701857282502413e+00
1.608015640273704694e+00
9.579667644183773589e-01
1.930596285434995174e+00
9.824046920821114526e-01
1.837732160312805618e+00
1.480938416422287407e+00
1.290322580645161255e+00
1.754643206256109700e+00
1.891495601173020624e+00
1.529814271749755594e+00
1.231671554252199430e+00
9.481915933528837215e-01
1.476050830889540588e+00
2.003910068426197455e+00
1.173020527859237605e+00
1.568914956011730144e+00
1.950146627565982449e+00
1.466275659824046951e+00
9.726295210166178151e-01
1.412512218963831945e+00
1.466275659824046951e+00
1.622678396871945150e+00
1.969696969696969724e+00
1.036168132942326459e+00
1.065493646138807371e+00
1.559139784946236507e+00
1.505376344086021501e+00
1.622678396871945150e+00
1.260997067448680342e+00
1.529814271749755594e+00
1.515151515151515138e+00
1.583577712609970600e+00
1.290322580645161255e+00
1.124144672531769196e+00
1.412512218963831945e+00
1.192570869990224880e+00
1.559139784946236507e+00
1.647116324535679244e+00
1.256109481915933523e+00
1.485826001955034226e+00
1.133919843597262833e+00
1.647116324535679244e+00
1.197458455522971699e+00
1.324535679374388986e+00
1.353861192570869898e+00
1.363636363636363535e+00
1.412512218963831945e+00
1.368523949169110354e+00
1.906158357771261080e+00
9.872922776148582713e-01
1.153470185728250108e+00
1.353861192570869898e+00
1.368523949169110354e+00
1.642228739002932425e+00
1.402737047898338085e+00
1.187683284457478061e+00
1.568914956011730144e+00
1.456500488758553313e+00
1.309872922776148529e+00
1.436950146627566038e+00
1.368523949169110354e+00
1.344086021505376261e+00
1.373411534701857173e+00
1.505376344086021501e+00
1.304985337243401711e+00
1.529814271749755594e+00
1.671554252199413337e+00
1.348973607038123079e+00
1.378299120234603992e+00
1.436950146627566038e+00
1.520039100684261957e+00
1.344086021505376261e+00
1.466275659824046951e+00
1.451612903225806495e+00
1.490713587487781044e+00
1.363636363636363535e+00
1.412512218963831945e+00
1.329423264907135804e+00
1.446725317693059676e+00
1.432062561094819220e+00
1.353861192570869898e+00
1.363636363636363535e+00
1.402737047898338085e+00
1.471163245356793770e+00
1.407624633431085126e+00
1.314760508308895348e+00
1.295210166177908073e+00
1.314760508308895348e+00
1.344086021505376261e+00
1.324535679374388986e+00
1.314760508308895348e+00
1.265884652981427161e+00
1.392961876832844448e+00
1.505376344086021501e+00
1.500488758553274682e+00
1.427174975562072401e+00
1.485826001955034226e+00
1.505376344086021501e+00
1.505376344086021501e+00
1.441837732160312857e+00
1.451612903225806495e+00
1.490713587487781044e+00
1.520039100684261957e+00
1.485826001955034226e+00
1.485826001955034226e+00
1.490713587487781044e+00
1.451612903225806495e+00
1.476050830889540588e+00
1.441837732160312857e+00
1.466275659824046951e+00
1.524926686217008776e+00
1.480938416422287407e+00
1.417399804496578763e+00
1.544477028347996050e+00
1.485826001955034226e+00
1.456500488758553313e+00
1.549364613880742869e+00
1.480938416422287407e+00
1.495601173020527863e+00
1.544477028347996050e+00
1.441837732160312857e+00
1.476050830889540588e+00
1.490713587487781044e+00
1.495601173020527863e+00
1.549364613880742869e+00
1.461388074291300132e+00
1.568914956011730144e+00
1.476050830889540588e+00
1.534701857282502413e+00
1.500488758553274682e+00
1.510263929618768319e+00
1.495601173020527863e+00
1.520039100684261957e+00
1.505376344086021501e+00
1.490713587487781044e+00
1.500488758553274682e+00
1.451612903225806495e+00
1.480938416422287407e+00
1.490713587487781044e+00
1.505376344086021501e+00
1.485826001955034226e+00
1.461388074291300132e+00
1.510263929618768319e+00
1.564027370478983325e+00
1.480938416422287407e+00
1.583577712609970600e+00
1.476050830889540588e+00
1.510263929618768319e+00
1.534701857282502413e+00
1.490713587487781044e+00
1.471163245356793770e+00
1.485826001955034226e+00
1.524926686217008776e+00
1.505376344086021501e+00
1.480938416422287407e+00
1.476050830889540588e+00
1.524926686217008776e+00
1.510263929618768319e+00
1.544477028347996050e+00
1.505376344086021501e+00
1.539589442815249232e+00
1.500488758553274682e+00
1.534701857282502413e+00
1.549364613880742869e+00
1.476050830889540588e+00
1.515151515151515138e+00
1.515151515151515138e+00
1.598240469208211056e+00
1.456500488758553313e+00
1.461388074291300132e+00
1.480938416422287407e+00
1.461388074291300132e+00
1.495601173020527863e+00
1.500488758553274682e+00
1.490713587487781044e+00
1.490713587487781044e+00
1.505376344086021501e+00
1.534701857282502413e+00
1.564027370478983325e+00
1.480938416422287407e+00
1.490713587487781044e+00
1.500488758553274682e+00
1.515151515151515138e+00
1.461388074291300132e+00
1.456500488758553313e+00
1.500488758553274682e+00
1.480938416422287407e+00
1.480938416422287407e+00
1.608015640273704694e+00
1.392961876832844448e+00
1.471163245356793770e+00
1.490713587487781044e+00
1.461388074291300132e+00
1.495601173020527863e+00
1.505376344086021501e+00
1.495601173020527863e+00
1.476050830889540588e+00
1.456500488758553313e+00
1.480938416422287407e+00
1.490713587487781044e+00
1.490713587487781044e+00
1.485826001955034226e+00
1.510263929618768319e+00
1.344086021505376261e+00
1.451612903225806495e+00
1.451612903225806495e+00
1.422287390029325582e+00
1.427174975562072401e+00
1.432062561094819220e+00
1.417399804496578763e+00
1.510263929618768319e+00
1.500488758553274682e+00
1.568914956011730144e+00
1.593352883675464238e+00
1.564027370478983325e+00
1.544477028347996050e+00
1.559139784946236507e+00
1.539589442815249232e+00
1.529814271749755594e+00
1.568914956011730144e+00
1.515151515151515138e+00
1.559139784946236507e+00
1.549364613880742869e+00
1.529814271749755594e+00
1.500488758553274682e+00
1.500488758553274682e+00
1.495601173020527863e+00
1.485826001955034226e+00
1.515151515151515138e+00
1.515151515151515138e+00
1.485826001955034226e+00
1.476050830889540588e+00
1.485826001955034226e+00
1.422287390029325582e+00
1.466275659824046951e+00
1.485826001955034226e+00
1.500488758553274682e+00
1.505376344086021501e+00
1.490713587487781044e+00
1.559139784946236507e+00
1.451612903225806495e+00
1.554252199413489688e+00
1.456500488758553313e+00
1.451612903225806495e+00
1.500488758553274682e+00
1.500488758553274682e+00
1.510263929618768319e+00
1.529814271749755594e+00
1.520039100684261957e+00
1.529814271749755594e+00
1.559139784946236507e+00
1.480938416422287407e+00
1.534701857282502413e+00
1.539589442815249232e+00
1.441837732160312857e+00
1.471163245356793770e+00
1.510263929618768319e+00
1.534701857282502413e+00
1.505376344086021501e+00
1.529814271749755594e+00
1.480938416422287407e+00
1.524926686217008776e+00
1.539589442815249232e+00
1.544477028347996050e+00
1.529814271749755594e+00
1.568914956011730144e+00
1.539589442815249232e+00
1.495601173020527863e+00
1.480938416422287407e+00
1.510263929618768319e+00
1.524926686217008776e+00
1.495601173020527863e+00
1.500488758553274682e+00
1.510263929618768319e+00
1.544477028347996050e+00
1.436950146627566038e+00
1.554252199413489688e+00
1.392961876832844448e+00
1.451612903225806495e+00
1.485826001955034226e+00
1.451612903225806495e+00
1.480938416422287407e+00
1.495601173020527863e+00
1.520039100684261957e+00
1.510263929618768319e+00
1.490713587487781044e+00
1.480938416422287407e+00
1.515151515151515138e+00
1.480938416422287407e+00
1.456500488758553313e+00
1.476050830889540588e+00
1.495601173020527863e+00
1.505376344086021501e+00
1.510263929618768319e+00
1.500488758553274682e+00
1.544477028347996050e+00
1.471163245356793770e+00
1.480938416422287407e+00
1.529814271749755594e+00
1.417399804496578763e+00
1.471163245356793770e+00
1.466275659824046951e+00
1.495601173020527863e+00
1.544477028347996050e+00
1.466275659824046951e+00
1.515151515151515138e+00
1.515151515151515138e+00
1.495601173020527863e+00
1.476050830889540588e+00
1.505376344086021501e+00
1.495601173020527863e+00
1.515151515151515138e+00
1.480938416422287407e+00
1.485826001955034226e+00
1.510263929618768319e+00
1.549364613880742869e+00
1.480938416422287407e+00
1.510263929618768319e+00
1.495601173020527863e+00
1.510263929618768319e+00
1.505376344086021501e+00
1.392961876832844448e+00
1.422287390029325582e+00
1.427174975562072401e+00
1.432062561094819220e+00
1.476050830889540588e+00
1.432062561094819220e+00
1.476050830889540588e+00
1.344086021505376261e+00
1.524926686217008776e+00
1.505376344086021501e+00
1.500488758553274682e+00
1.510263929618768319e+00
1.529814271749755594e+00
1.495601173020527863e+00
1.505376344086021501e+00
1.549364613880742869e+00
1.480938416422287407e+00
1.407624633431085126e+00
1.485826001955034226e+00
1.485826001955034226e+00
1.549364613880742869e+00
1.588465298142717419e+00
1.564027370478983325e+00
1.549364613880742869e+00
1.378299120234603992e+00
1.436950146627566038e+00
1.505376344086021501e+00
1.515151515151515138e+00
1.471163245356793770e+00
1.564027370478983325e+00
1.529814271749755594e+00
1.524926686217008776e+00
1.554252199413489688e+00
1.544477028347996050e+00
1.485826001955034226e+00
1.407624633431085126e+00
1.559139784946236507e+00
1.515151515151515138e+00
1.358748778103616717e+00
1.451612903225806495e+00
1.461388074291300132e+00
1.549364613880742869e+00
1.598240469208211056e+00
1.524926686217008776e+00
1.471163245356793770e+00
1.461388074291300132e+00
1.480938416422287407e+00
1.656891495601172881e+00
1.559139784946236507e+00
1.383186705767350810e+00
1.510263929618768319e+00
1.544477028347996050e+00
1.632453567937438788e+00
1.573802541544476963e+00
1.520039100684261957e+00
1.476050830889540588e+00
1.549364613880742869e+00
1.412512218963831945e+00
1.490713587487781044e+00
1.456500488758553313e+00
1.637341153470185606e+00
1.471163245356793770e+00
1.451612903225806495e+00
1.666666666666666519e+00
1.554252199413489688e+00
1.520039100684261957e+00
1.510263929618768319e+00
1.500488758553274682e+00
1.549364613880742869e+00
